# x (km)              y (km)
 21628.389541505181 -18118.720809602753
 21908.256479857970 -18148.561117022582
 23151.845529087630 -18267.399955154215
 24135.490895032552 -18345.539919368766
 25099.600941783967 -18408.824620090811
 26044.925643467031 -18458.326265917003
 26972.165203973273 -18495.006321148634
 27881.974109669798 -18519.730299165094
 28774.964862107419 -18533.280170817317
 29651.711396527811 -18536.364832980642
 30512.752201120267 -18529.628988897395
 31358.593156720082 -18513.660720094707
 32189.710118648552 -18488.997974031499
 33006.551262739275 -18456.134148230522
 33809.539216957128 -18415.522917556162
 34599.072998830074 -18367.582424333326
 35375.529777452452 -18312.698929538627
 36139.266477252968 -18251.230006106474
 36890.621239155131 -18183.507341547967
 37247.104919217876 -18148.673086625760
 37569.462780183821 -18115.734572782145
 37889.565797662086 -18081.708877723457
 38207.438624609866 -18046.618978242688
 38523.105374853600 -18010.487168192863
 38836.589639243393 -17973.335085669689
 39147.914501202438 -17935.183738851847
 39457.102551697702 -17896.053530577705
 39764.175903656935 -17855.964281732111
 40069.156205856059 -17814.935253511638
 40254.226590996797 -17788.595784112702
 41033.715477896112 -17672.205376601101
 41707.280617510820 -17565.172196035324
 42370.587464308337 -17453.818750537612
 43023.853841963406 -17338.329410220053
 43667.288057602243 -17218.877916869613
 44301.089467892118 -17095.628200400424
 44925.449002738293 -16968.735118225741
 45540.549650328525 -16838.345126136439
 46146.566906893931 -16704.596888177464
 46743.669194222151 -16567.621832073884
 47332.018247662680 -16427.544655951351
 47911.769477099617 -16284.483791400802
 48483.072303130095 -16138.551827335843
 49046.070470475170 -15989.855898571039
 49600.902340460249 -15838.498042597410
 50147.701164232240 -15684.575527637804
 50686.595338228333 -15528.181154721267
 51217.708643273865 -15369.403536215388
 51741.160468564136 -15208.327352992303
 52257.066021674102 -15045.033592172636
 52765.536525639531 -14879.599767188040
 53266.679404063660 -14712.100121723790
 53760.598455121879 -14542.605818943655
 54247.394015263038 -14371.185117259243
 54727.163113339826 -14197.903533781091
 55199.999615840119 -14022.823996478224
 55665.994363836326 -13846.006985974102
 56125.235302220332 -13667.510667819233
 56577.807601746237 -13487.391016002015
 57023.793774361948 -13305.701928389264
 57463.273782273442 -13122.495334724983
 57896.325141151050 -12937.821297759412
 58323.023017856030 -12751.728108029769
 58743.440323037532 -12564.262372768322
 59157.647798923310 -12375.469099372618
 59565.714102604332 -12185.391773835108
 59967.705885091098 -11994.072434496400
 60363.687866399989 -11801.551741455660
 60753.722906908595 -11607.869041944521
 61137.872075203188 -11413.062431945598
 61516.194712625118 -11217.168814314537
 61888.748494708911 -11020.223953643586
 62255.589489691512 -10822.262528086136
 62616.772214260229 -10623.318178344693
 62972.349686695175 -10423.423554009072
 63322.373477552348 -10222.610357417516
 63666.893758023085 -10020.909385200353
 64005.959346097392  -9818.350567654168
 64339.617750650294  -9614.963006083319
 64667.915213562323  -9410.775008235867
 64990.896749978878  -9205.814121951835
 65308.606186806064  -9000.107167133168
 65621.086199534955  -8793.680266137279
 65928.378347480117  -8586.558872688813
 66230.523107513582  -8378.767799397765
 66527.559906369919  -8170.331243966051
 66819.527151594084  -7961.272814159240
 66941.236122602451  -7872.861308618729
 67226.058476733073  -7662.958098040188
 67505.900256583438  -7452.487890262870
 67780.796599021545  -7241.472447839977
 68050.781743945161  -7029.933040742566
 68315.889058943329  -6817.890465765280
 68576.151062969366  -6605.365065082126
 68831.599449071247  -6392.376743998753
 69082.265106222578  -6178.944987944988
 69328.178140295291  -5965.088878748569
 69569.367894212628  -5750.827110228478
 69805.862967318797  -5536.178003144136
 70037.691234000347  -5321.159519534300
 70264.879861591471  -5105.789276477723
 70487.455327594667  -4890.084559305622
 70705.443436245667  -4674.062334294313
 70918.869334450865  -4457.739260864646
 71127.757527123191  -4241.131703313535
 71332.131891941855  -4024.255742101213
 71532.015693558991  -3807.127184716757
 71727.431597276489  -3589.761576142992
 71918.401682213647  -3372.174208940765
 72104.947453986213  -3154.380132971677
 72287.089856916122  -2936.394164777033
 72464.849285789969  -2718.230896630024
 72638.245597183675  -2499.904705277260
 72807.298120369902  -2281.429760384834
 72972.025667823807  -2062.820032703361
 73132.446545342085  -1844.089301965814
 73288.578561789458  -1625.251164530957
 73440.439038486191  -1406.319040785025
 73588.044818249371  -1187.306182313201
 73731.412274100119   -968.225678852161
 73870.557317648534   -749.090465034362
 74005.495407167415   -529.913326934155
 74136.241555365006   -310.706908425531
 74262.810336867158    -91.483717360512
 74385.215895418296    127.743868422775
 74503.471950810286    346.963595254101
 74617.591805547869    566.163327939075
 74727.588351258848    785.331044213375
 74845.144646479763   1057.869674852242
 74945.902455229239   1276.970645716179
 75042.574544509611   1496.001275302529
 75135.172131114596   1714.949953052101
 75223.706050410357   1933.805154423924
 75308.186761318968   2152.555436102284
 75388.624351095365   2371.189431303137
 75465.028539903375   2589.695845174301
 75537.408685195885   2808.063450284286
 75605.773785904137   3026.281082194404
 75670.132486440911   3244.337635109448
 75730.493080521934   3462.222057601870
 75786.863514809782   3679.923348405120
 75839.251392384263   3897.430552271426
 75887.663976042866   4114.732755889707
 75932.108191435182   4331.819083859435
 75972.590630034523   4548.678694716213
 76009.117551949341   4765.300777005126
 76041.694888578713   4981.674545397949
 76070.328245113109   5197.789236850231
 76095.022902884302   5413.634106794680
 76115.783821566336   5629.198425367116
 76132.615641229640   5844.471473661233
 76145.522684250944   6059.442540008895
 76154.508957080368   6274.100916282188
 76159.578151867958   6488.435894213952
 76160.733647950983   6702.436761733386
 76157.978513203561   6916.092799313212
 76151.315505250270   7129.393276325280
 76140.747072544284   7342.327447401003
 76126.275355311765   7554.884548793731
 76107.902186363121   7767.053794739310
 76095.352712634587   7890.923385729009
 76067.416307475432   8125.691945126302
 76040.367462131340   8321.629727852527
 76009.992895482923   8517.202990315371
 75976.292921066182   8712.403067295054
 75939.267630899601   8907.221262521831
 75898.916895447415   9101.648846159052
 75855.240363502147   9295.677052269755
 75808.237461986442   9489.297076264746
 75757.907395674411   9682.500072330289
 75704.329263930675   9875.286213200689
 75674.375523354713   9977.845742136597
 75643.475978874601  10080.280410388777
 75611.630398797497  10182.588855727790
 75578.838533353279  10284.769711735438
 75545.100114665460  10386.821607688726
 75510.414856720337  10488.743168443079
 75474.782455334207  10590.533014314804
 75438.202588118555  10692.189760962759
 75400.674914443414  10793.712019269195
 75362.199075398865  10895.098395219780
 75281.121428600600  11100.622724737386
 75196.126420768385  11305.568795740173
 75107.210342208855  11509.924723969540
 75014.369167267869  11713.678529066705
 74917.598552472773  11916.818130168680
 74816.893834530871  12119.331341426177
 74712.250028181152  12321.205867438839
 74603.661823897201  12522.429298603114
 74491.123585439229  12722.989106367977
 74374.629347251714  12922.872638393483
 74254.172811704630  13122.067113606947
 74129.747346174699  13320.559617151523
 74001.345979963575  13518.337095221468
 73868.961401049659  13715.386349778570
 73732.585952669819  13911.694033143582
 73592.211629727142  14107.246642456628
 73447.830075020669  14302.030514000029
 73299.432575292871  14496.031817376977
 73147.010057090403  14689.236549538980
 72990.553082433064  14881.630528654932
 72830.051844286354  15073.199387814140
 72665.496161831979  15263.928568555530
 72496.875475530862  15453.803314214660
 72324.178841972855  15642.808663080106
 72147.394928506765  15830.929441350050
 71966.512007644487  16018.150255879787
 71781.517951232032  16204.455486710285
 71592.400224380763  16389.829279367445
 71399.145879150747  16574.255536921286
 71201.741547978774  16757.717911793789
 71000.173436842349  16940.199797303387
 70794.427318151109  17121.684318933792
 70584.488523356384  17302.154325313939
 70370.341935269345  17481.592378895413
 70151.971980077447  17659.980746312744
 69929.362619048392  17837.301388411539
 69702.497339910871  18013.535949928289
 69471.359147899697  18188.665748805131
 69235.930556453444  18362.671765121682
 68996.193577551225  18535.534629625352
 68752.129711675138  18707.234611840282
 68503.719937383896  18877.751607734222
 68250.944700482432  19047.065126921203
 67993.783902771698  19215.154279376919
 67732.216890361931  19381.997761642197
 67466.222441531412  19547.573842488637
 67195.778754112500  19711.860348018912
 66920.863432385362  19874.834646172800
 66641.453473458445  20036.473630607943
 66357.525253114451  20196.753703922986
 66069.054511098540  20355.650760188222
 65776.016335824999  20513.140166747318
 65478.385148476460  20669.196745250942
 65176.134686469333  20823.794751881083
 64869.237986256703  20976.907856722035
 64557.667365439047  21128.509122231255
 64241.394404150902  21278.570980760443
 63920.389925690404  21427.065211073786
 63594.623976356059  21573.962913807049
 63264.065804453654  21719.234485807272
 62928.683838433652  21862.849593288971
 62588.445664117418  22004.777143738444
 62243.318000967738  22144.985256492895
 61893.266677357067  22283.441231916360
 61538.256604783492  22420.111519088816
 61178.251750981901  22554.961681918972
 60813.215111874335  22687.956363584988
 60443.108682300117  22819.059249200414
 60067.893425463000  22948.233026595262
 59687.529241027965  23075.439345093953
 59301.974931796896  23200.638772163184
 58911.188168887107  23323.790747793308
 58515.125455332411  23444.853536466246
 58113.742088020845  23563.784176551970
 57706.992117877693  23680.538426963038
 57294.828308196513  23795.070710883600
 56877.202091014326  23907.334056374384
 56454.063521420030  24017.280033639385
 56268.358398618315  24063.252794769927
 55837.217656075511  24169.794274868793
 55400.436822151147  24273.894033413475
 54957.960841443281  24375.498103779453
 54509.733050764233  24474.550736587444
 54055.695119922981  24570.994314237072
 53595.786989520799  24664.769260225316
 53129.946805577245  24755.813942857429
 52658.110850790647  24844.064572922973
 52180.213472222575  24929.455094870977
 51696.187005180262  25011.917070975367
 51205.961693054494  25091.379557934411
 51035.130883453516  25118.124010857977
 50536.451057949176  25193.434053453617
 50031.400076255239  25265.567613517691
 49519.900542599004  25334.444357253124
 49001.872567135346  25399.980804960494
 48477.233659215868  25462.090155297949
 47945.898614577411  25520.682096947352
 47407.779396030717  25575.662606575257
 46862.785007196784  25626.933731860714
 46310.821358801841  25674.393358230722
 45751.791127002522  25717.934957796719
 45185.593603169546  25757.447318819643
 44612.124534511699  25792.814253843673
 44031.275954870653  25823.914284427010
 43442.936004962154  25850.620300158211
 42846.988741278954  25872.799189374327
 42243.313932805831  25890.311438687480
 41631.786844626309  25903.010698073580
 41012.278007424517  25910.743307873723
 40384.652971803494  25913.347783597368
 39748.772046252372  25910.654253886678
 39104.490017500342  25902.483846392170
 38451.655851893971  25888.648015607130
 37790.112376327386  25868.947805895783
 37119.695937142242  25843.173042008319
 36440.236035297494  25811.101438280471
 35751.554935989261  25772.497616438595
 35053.467250781556  25727.112020437471
 34345.779490192261  25674.679715005877
 33628.289584571816  25614.919052512712
 32900.786371021873  25547.530190330635
 32163.049044038235  25472.193437987735
 31429.643829959667  25390.432762461442
 30670.948829161054  25298.331614515675
 29901.298515460265  25197.192753951953
 29120.427468010756  25086.596822969055
 28328.057270518966  24966.092853803264
 27523.895701934278  24835.194919782534
 26707.635880469676  24693.378326332524
 25878.955362954024  24540.075263723473
 25037.515203870826  24374.669827403661
 24182.958981822965  24196.492292013561
 23314.911805997632  24004.812500567616
 22432.979322086903  23798.832199453420
 21536.746746901579  23577.676111016895
 20625.777974830482  23340.381486162805
 19699.614819138515  23085.885816369369
 18694.158313029810  22794.196993442976
 17735.035235828200  22500.289598028423
 16759.171627868949  22185.131724031806
 15766.018976987147  21847.072794813936
 14755.010224641002  21484.252701215439
 13725.564175756943  21094.564462698319
 12677.092680173038  20675.608268071210
 11609.011926267473  20224.634448049786
 10520.759868470766  19738.472112424934
  9411.822875694841  19213.439055996845
  8281.776380811922  18645.226977411679
  7130.347048840706  18028.753899844345
  5957.508489898612  17357.972729401088
  4763.630112744144  16625.620933846811
  3549.711678240704  15822.891321326206
  2317.758741770727  14938.998428552546
  1071.394332598461  13960.611703626138
  -183.125838625662  12871.134099397796
 -1435.199390016789  11649.848531742453
 -2666.952356332241  10271.107517717777
 -3848.281640291032   8704.197529792555
 -4928.875438328045   6915.727504663643
 -5827.473891666158   4879.072568898928
 -6425.368789072621   2598.543085487221
 -6587.205878910320    148.469176199547
 -6527.859417960241   -671.107545540652
 -6444.361679322959  -1290.477154949455
 -6328.037127960702  -1906.690341427523
 -6179.893233026507  -2516.882404808891
 -6001.430794351213  -3118.480804814229
 -5794.546523627187  -3709.296962878805
 -5425.798084742527  -4593.236107538158
 -5037.611672148169  -5377.831123400886
 -4613.518983003534  -6124.274821954282
 -4160.390798391542  -6832.364208912534
 -3684.307735043297  -7502.949592024824
 -2011.022445506072  -9469.813284134567
  -532.667229912857 -10887.792048852589
   956.140722159243 -12123.169368003226
  2434.281971877894 -13212.001052217400
  3891.117647320176 -14182.224419484803
  5321.631767272771 -15055.229296083324
  6723.830978738035 -15847.464207532492
  8097.348641654462 -16571.715778413960
  9442.684890089051 -17238.054905536934
 10760.786508493320 -17854.520907455968
 12052.811885332214 -18427.615121678089
 13319.998827151698 -18962.659401061006
 14563.590599222560 -19464.059253017844
 15784.795421592728 -19935.499342844672
 16984.765385883544 -20380.090576870043
 18164.586694430775 -20800.482130824475
 19325.276476550211 -21198.947795113985
 20467.783368127348 -21577.453276436045
 21592.990172657708 -21937.709212808601
 22701.717595432394 -22281.213350303635
 23794.728446469700 -22609.284407081639
 24872.731957091892 -22923.089500787228
 25936.388003659908 -23223.666541980798
 26986.311124771830 -23511.942655423256
 28023.074275210609 -23788.749441074597
 29047.212294102261 -24054.835700618292
 30059.225085210906 -24310.878116229054
 31059.580519102332 -24557.490263215313
 32048.717073314052 -24795.230258081167
 33027.046229731073 -25024.607282010398
 33994.954649384788 -25246.087172112624
 34952.806144690250 -25460.097235580204
 35900.943468238118 -25667.030412679946
 36839.689935989962 -25867.248891382485
 37769.350901294267 -26061.087258024028
 38690.215094671912 -26248.855253648937
 39602.555842886890 -26430.840193801490
 40506.632179465123 -26607.309099909398
 41402.689857569494 -26778.510582564155
 42290.962274994337 -26944.676510586349
 43171.671320005516 -27106.023494488665
 44045.028145820259 -27262.754208589115
 44911.233880686683 -27415.058572410297
 45770.480279779251 -27563.114808985811
 46622.950324463673 -27707.090395173287
 47468.818773896950 -27847.142916955629
 48308.252673404939 -27983.420840926447
 49141.411823616232 -28116.064211645822
 49968.449213918982 -28245.205283270221
 50789.511423441640 -28370.969092769035
 51604.738992433573 -28493.473981107378
 52414.266766632325 -28612.832067975825
 53218.224216947550 -28729.149684961179
 54016.735736562150 -28842.527771459965
 54809.920917347823 -28953.062237126142
 55597.894807308869 -29060.844294199978
 56380.768150606425 -29165.960762681632
 57158.647611569337 -29268.494350976882
 57931.635983966931 -29368.523914350626
 58699.832386703310 -29466.124693267782
 59463.332446986395 -29561.368533476969
 60222.228471932220 -29654.324089495283
 60976.609609478677 -29745.057012979392
 61882.921471886017 -29851.894635273693
 62627.629465143400 -29937.936162182312
 63368.089042361142 -30021.947433626559
 64104.377606270988 -30103.983234839710
 64836.570094156676 -30184.096131654114
 65564.739087838301 -30262.336590167171
 66288.954917413357 -30338.753088397461
 67009.285759181017 -30413.392220568036
 67725.797728142468 -30486.298794596016
 68438.554965439689 -30557.515923314510
 69147.619721066236 -30627.085109906402
 69853.052432158394 -30695.046327986842
 70554.911797152134 -30761.438096733367
 71253.254846068696 -30826.297551427917
 71948.137007173500 -30889.660509744717
 72639.612170233988 -30951.561534089036
 73327.732746586320 -31012.033990267355
 74012.549726205427 -31071.110102745741
 74694.112731959322 -31128.821006733171
 75372.470071215386 -31185.196797306777
 76047.668784955589 -31240.266575779460
 76719.754694545365 -31294.058493494293
 77388.772446292700 -31346.599793215926
 78054.765553923222 -31397.916848276254
 78717.776439089561 -31448.035199619411
 79377.846470025455 -31496.979590880914
 80035.015998447008 -31544.774001624988
 80689.324394798125 -31591.441678855648
 81340.810081929478 -31637.005166908388
 81989.510567296209 -31681.486335821981
 82635.462473752676 -31724.906408282266
 83278.701569018915 -31767.285985224025
 83919.262793888076 -31808.645070170540
 84557.180289240263 -31849.003092385239
 85192.487421923986 -31888.378928904538
 85825.216809562902 -31926.790925516456
 86455.400344342066 -31964.256916745431
 87083.069215824711 -32000.794244899225
 87708.253932847438 -32036.419778230793
 88330.984344539145 -32071.149928264065
 88951.289660506343 -32105.000666329706
 89569.198470224830 -32137.987539353839
 90184.738761676039 -32170.125684940129
 90797.937939263444 -32201.429845782925
 91408.822841043075 -32231.914383447056
 92017.419755299910 -32261.593291547339
 92623.754436500691 -32290.480208359262
 93227.852120651180 -32318.588428890151
 93829.737540085305 -32345.930916438221
 94429.434937711834 -32372.520313665802
 95026.968080742241 -32398.368953210898
 95622.360273923478 -32423.488867860215
 96215.634372296801 -32447.891800305300
 96806.812793503879 -32471.589212502295
 97395.917529659026 -32494.592294654431
 97982.970158806958 -32516.911973835464
 98567.991855983040 -32538.558922271543
 99151.003403893410 -32559.543565297110
 99732.025203230311 -32579.876089000783
100311.077282638362 -32599.566447575173
100888.179308345687 -32618.624370384845
101463.350593474053 -32637.059368764851
102036.610107040615 -32654.880742562491
102607.976482664235 -32672.097586433851
103177.468026987772 -32688.718795905894
103745.102727827660 -32704.753073214888
104310.898262062023 -32720.208932930760
104874.872003266835 -32735.094707377000
105437.041029110551 -32749.418551854789
105997.422128516075 -32763.188449680027
106556.031808599524 -32776.412217041187
107112.886301393562 -32789.097507685612
107668.001570364213 -32801.251817441444
108221.393316728165 -32812.882488582407
108773.076985578751 -32823.996714041481
109323.067771827104 -32834.601541480180
109871.380625965481 -32844.703877219203
110418.030259659441 -32854.310490035881
110963.031151174757 -32863.428014834368
111506.397550645182 -32872.062956193069
112048.143485186971 -32880.221691794686
112588.282763865005 -32887.910475743251
